wavelength (nm) transmission
846 0.142
847 0.262
848 0.539
849 1.1
850 2.06
851 2.54
852 3.09
853 3.75
854 4.85
855 6.61
856 9.39
857 14.1
858 23
859 38.7
860 59.1
861 75.9
862 84.9
863 88.2
864 89.1
865 88.7
866 89.3
867 88.9
868 88.9
869 88.9
870 88.6
871 87.1
872 86.3
873 85.4
874 84.1
875 82.1
876 80.3
877 75.2
878 63.7
879 46.4
880 28.5
881 17.1
882 10.3
883 6.34
884 4.29
885 2.99
886 2.13
887 1.62
888 1.26
889 0.863
890 0.457
891 0.245
892 0.134